[['      time', '  pressure', '  aperture', '    length']]
         2 1.654e+06 0.0006768     8.137
         4 1.297e+06  0.000743     10.59
         6 1.115e+06 0.0007734     12.36
         8 1.005e+06 0.0007918     13.73
        10 9.482e+05 0.0008189     15.14
        12 8.923e+05 0.0008351     16.27
        14 8.487e+05 0.0008485     17.19
        16 8.122e+05 0.0008595     18.05
        18 7.812e+05 0.0008682     19.28
        20 7.553e+05 0.0008769      19.8
        24  7.21e+05  0.000901     21.65
        28 6.856e+05 0.0009147     23.23
        32 6.572e+05 0.0009268      24.2
        36 6.335e+05 0.0009378     25.43
        40 6.129e+05 0.0009476      26.8
        44 5.947e+05 0.0009558     28.01
        48 5.789e+05 0.0009636     29.08
        52 5.647e+05  0.000971     29.77
        56 5.521e+05 0.0009782     31.03
        60 5.405e+05 0.0009845        32
        68 5.235e+05  0.001002     33.78
        76 5.059e+05  0.001014      35.4
        84 4.908e+05  0.001025     36.74
        92 4.774e+05  0.001035     38.23
       100 4.654e+05  0.001044     39.61
       110 4.528e+05  0.001055     41.55
       120 4.409e+05  0.001064     43.23
       130 4.304e+05  0.001073     44.57
       140 4.208e+05   0.00108     46.03
       150 4.122e+05  0.001088     47.71
       160 4.043e+05  0.001095     48.87
       170  3.97e+05  0.001102     50.26
       180 3.903e+05  0.001108     51.56
       190  3.84e+05  0.001114     52.68
       200 3.782e+05   0.00112     53.93
       220 3.692e+05  0.001135     56.19
       240 3.596e+05  0.001146     58.37
       260 3.511e+05  0.001156     60.51
       280 3.434e+05  0.001165     62.54
       300 3.364e+05  0.001173     64.43
       320   3.3e+05  0.001181     66.14
       340 3.241e+05  0.001188     68.08
       360 3.187e+05  0.001195     69.89
       380 3.136e+05  0.001201     71.54
       400 3.089e+05  0.001208     72.99
